"#""Step""",Potential Energy (kJ/mole),Kinetic Energy (kJ/mole),Total Energy (kJ/mole),Temperature (K),Density (g/mL),,
100,-1216658.896,19864.59033,-1196794.306,30.16099819,0.968163616,AVG,299.7532297
200,-1198871.152,35970.63882,-1162900.513,54.61529054,0.968163616,STDV,0.961703541
300,-1183278.092,51312.79441,-1131965.297,77.90974157,0.968163616,,
400,-1169101.586,65025.86593,-1104075.72,98.73070582,0.968163616,,
500,-1156563.822,77675.11747,-1078888.705,117.9364406,0.968163616,,
600,-1144768.162,88613.19353,-1056154.968,134.5440467,0.968163616,,
700,-1133119.155,98440.41628,-1034678.738,149.4650112,0.968163616,,
800,-1124409.852,108299.6863,-1016110.166,164.434634,0.968163616,,
900,-1114641.036,115652.6746,-998988.3612,175.5988949,0.968163616,,
1000,-1105483.771,122210.7475,-983273.023,185.556212,0.968163616,,
1100,-1097561.99,128542.8677,-969019.1223,195.1704583,0.968163616,,
1200,-1090373.1,134938.8647,-955434.2356,204.8816908,0.968163616,,
1300,-1084157.479,140495.1507,-943662.3287,213.317965,0.968163616,,
1400,-1077055.769,144275.5458,-932780.2234,219.0578513,0.968163616,,
1500,-1071130.043,148835.8644,-922294.1789,225.9819186,0.968163616,,
1600,-1065301.253,151895.828,-913405.4253,230.6279524,0.968163616,,
1700,-1061309.141,156615.4097,-904693.7317,237.7938336,0.968163616,,
1800,-1055623.688,159553.4524,-896070.2359,242.2547512,0.968163616,,
1900,-1050713.283,162012.4324,-888700.8506,245.9882936,0.968163616,,
2000,-1045952.026,164097.1582,-881854.8677,249.1535949,0.968163616,,
2100,-1042313.929,167077.1043,-875236.8245,253.6781356,0.968163616,,
2200,-1038767.16,169762.4045,-869004.7555,257.7553067,0.968163616,,
2300,-1035380.596,171553.9085,-863826.6876,260.4754006,0.968163616,,
2400,-1031048.256,172656.4902,-858391.7656,262.1494832,0.968163616,,
2500,-1027982.021,173806.5509,-854175.4698,263.8956545,0.968163616,,
2600,-1026171.774,176521.251,-849650.5226,268.0174644,0.968163616,,
2700,-1023322.542,178021.8159,-845300.726,270.2958167,0.968163616,,
2800,-1020301.921,179118.6217,-841183.2993,271.9611295,0.968163616,,
2900,-1018252.901,180140.2463,-838112.6544,273.5122926,0.968163616,,
3000,-1015744.718,181394.2044,-834350.5133,275.4162144,0.968163616,,
3100,-1012682.034,181512.5749,-831169.4588,275.5959398,0.968163616,,
3200,-1011429.215,182820.7286,-828608.4866,277.5821485,0.968163616,,
3300,-1008491.961,183213.8118,-825278.1492,278.1789784,0.968163616,,
3400,-1007561.589,184835.018,-822726.5712,280.6405041,0.968163616,,
3500,-1004867.407,184374.3771,-820493.0295,279.9410993,0.968163616,,
3600,-1004818.453,187156.6134,-817661.8397,284.1654513,0.968163616,,
3700,-1001939.793,186461.7784,-815478.015,283.1104627,0.968163616,,
3800,-999689.6358,186903.8863,-812785.7495,283.7817283,0.968163616,,
3900,-998544.7901,187841.2746,-810703.5155,285.2049929,0.968163616,,
4000,-997190.355,188731.4794,-808458.8756,286.5566173,0.968163616,,
4100,-996030.7209,188879.3946,-807151.3263,286.7812013,0.968163616,,
4200,-995517.2416,190370.7115,-805146.5301,289.045512,0.968163616,,
4300,-994074.6399,189731.1536,-804343.4864,288.0744522,0.968163616,,
4400,-991940.8634,189836.0283,-802104.8351,288.2336867,0.968163616,,
4500,-991553.6543,190544.6761,-801008.9782,289.3096476,0.968163616,,
4600,-990813.6265,190290.1801,-800523.4464,288.9232389,0.968163616,,
4700,-989874.2824,190577.6263,-799296.6561,289.359677,0.968163616,,
4800,-988912.299,190515.2106,-798397.0883,289.2649094,0.968163616,,
4900,-989201.8436,191904.21,-797297.6337,291.3738684,0.968163616,,
5000,-988500.9777,192450.6244,-796050.3533,292.2035057,0.968163616,,
5100,-987247.2541,192370.5169,-794876.7372,292.081876,0.968163616,,
5200,-986725.58,192676.0553,-794049.5247,292.5457841,0.968163616,,
5300,-986466.5268,193141.2225,-793325.3044,293.2520613,0.968163616,,
5400,-986098.7494,193588.3678,-792510.3816,293.9309752,0.968163616,,
5500,-986066.6601,194165.1752,-791901.4849,294.8067591,0.968163616,,
5600,-984353.8213,193144.2414,-791209.5799,293.2566449,0.968163616,,
5700,-983532.8999,193335.4698,-790197.4301,293.5469928,0.968163616,,
5800,-982968.2083,192959.7953,-790008.4129,292.976595,0.968163616,,
5900,-983396.5487,194152.2991,-789244.2496,294.787209,0.968163616,,
6000,-982355.1673,194229.0559,-788126.1114,294.9037511,0.968163616,,
6100,-982428.7941,194111.984,-788316.8101,294.7259973,0.968163616,,
6200,-981415.7027,193839.8197,-787575.8829,294.3127623,0.968163616,,
6300,-982166.6971,194695.3354,-787471.3617,295.6117171,0.968163616,,
6400,-981420.4897,195084.5673,-786335.9224,296.2026995,0.968163616,,
6500,-981374.8956,195193.4019,-786181.4937,296.3679462,0.968163616,,
6600,-981170.4638,195331.9673,-785838.4965,296.5783342,0.968163616,,
6700,-980254.766,195154.3637,-785100.4023,296.3086734,0.968163616,,
6800,-979972.861,195527.8809,-784444.9801,296.8757957,0.968163616,,
6900,-980037.7324,196180.5559,-783857.1766,297.8667715,0.968163616,,
7000,-979993.7453,196461.0209,-783532.7245,298.2926099,0.968163616,,
7100,-979073.4794,195838.4522,-783235.0272,297.3473453,0.968163616,,
7200,-979979.4846,196373.0919,-783606.3927,298.1591046,0.968163616,,
7300,-978004.9619,195307.8002,-782697.1617,296.5416406,0.968163616,,
7400,-979278.3519,197222.482,-782055.8699,299.448759,0.968163616,,
7500,-978262.7317,197219.985,-781042.7468,299.4449676,0.968163616,,
7600,-977747.0548,197528.8015,-780218.2533,299.9138529,0.968163616,,
7700,-977897.3039,197706.8245,-780190.4795,300.1841505,0.968163616,,
7800,-976045.9014,196156.5398,-779889.3617,297.8303072,0.968163616,,
7900,-977499.0479,197092.0251,-780407.0229,299.2506823,0.968163616,,
8000,-977216.8665,196673.1715,-780543.695,298.6147244,0.968163616,,
8100,-976951.4291,196539.8144,-780411.6147,298.4122445,0.968163616,,
8200,-977638.9471,197400.2616,-780238.6856,299.718687,0.968163616,,
8300,-978010.2837,197522.5669,-780487.7167,299.9043868,0.968163616,,
8400,-977764.7237,197739.9449,-780024.7788,300.2344383,0.968163616,,
8500,-976856.9725,196199.0285,-780657.944,297.894819,0.968163616,,
8600,-977741.0434,197154.8994,-780586.1441,299.3461463,0.968163616,,
8700,-977613.7092,197135.6994,-780478.0099,299.3169943,0.968163616,,
8800,-976930.4647,195830.8168,-781099.6479,297.3357523,0.968163616,,
8900,-977821.3125,196716.2574,-781105.0552,298.680143,0.968163616,,
9000,-978157.9044,196601.7181,-781556.1862,298.5062347,0.968163616,,
9100,-978413.0285,197138.2811,-781274.7473,299.3209142,0.968163616,,
9200,-978134.4884,196712.1864,-781422.302,298.673962,0.968163616,,
9300,-977660.0534,196769.2292,-780890.8242,298.7605718,0.968163616,,
9400,-977877.2888,197877.7044,-779999.5844,300.4436026,0.968163616,,
9500,-977169.6252,197089.9501,-780079.6751,299.2475318,0.968163616,,
9600,-977293.8102,197212.6069,-780081.2033,299.4337653,0.968163616,,
9700,-976506.0672,196526.6097,-779979.4575,298.3921954,0.968163616,,
9800,-976541.2491,197147.1602,-779394.089,299.3343956,0.968163616,,
9900,-976587.8631,196838.1133,-779749.7498,298.8651606,0.968163616,,
10000,-977825.9866,197610.6114,-780215.3751,300.0380674,0.968163616,,
10100,-977638.5361,197343.6137,-780294.9225,299.6326768,0.968163616,,
10200,-978011.2669,197327.3329,-780683.934,299.6079572,0.968163616,,
10300,-978497.7973,197017.7291,-781480.0682,299.1378766,0.968163616,,
10400,-977806.8601,196270.4861,-781536.374,298.0033153,0.968163616,,
10500,-977497.4197,195719.0916,-781778.3281,297.1661166,0.968163616,,
10600,-978569.0521,197301.6793,-781267.3727,299.5690066,0.968163616,,
10700,-979118.4912,197702.9199,-781415.5713,300.1782221,0.968163616,,
10800,-977798.2648,196303.921,-781494.3438,298.0540804,0.968163616,,
10900,-978447.2959,197365.679,-781081.6169,299.6661792,0.968163616,,
11000,-978923.3637,197334.0327,-781589.3309,299.6181298,0.968163616,,
11100,-977970.3362,196539.9936,-781430.3425,298.4125166,0.968163616,,
11200,-977921.7254,196854.2343,-781067.4911,298.8896375,0.968163616,,
11300,-977260.583,196468.5217,-780792.0613,298.3039986,0.968163616,,
11400,-977957.6364,197412.6644,-780544.972,299.7375185,0.968163616,,
11500,-978583.3374,197652.484,-780930.8535,300.1016437,0.968163616,,
11600,-977734.3253,197483.7867,-780250.5386,299.8455056,0.968163616,,
11700,-976911.0301,197167.4225,-779743.6076,299.3651605,0.968163616,,
11800,-977659.941,198522.7853,-779137.1557,301.4230481,0.968163616,,
11900,-976898.0021,197545.9187,-779352.0835,299.9398425,0.968163616,,
12000,-977012.8245,197783.0578,-779229.7666,300.2998979,0.968163616,,
12100,-976477.7816,197244.2234,-779233.5583,299.4817695,0.968163616,,
12200,-976759.1575,197646.6663,-779112.4912,300.0928106,0.968163616,,
12300,-977250.9352,198008.5714,-779242.3638,300.6423018,0.968163616,,
12400,-977855.255,198768.0971,-779087.1579,301.7955123,0.968163616,,
12500,-976665.8668,196799.6615,-779866.2053,298.8067781,0.968163616,,
12600,-977099.836,196869.1586,-780230.6774,298.9122975,0.968163616,,
12700,-977365.4244,197055.8032,-780309.6211,299.1956856,0.968163616,,
12800,-978767.264,198402.9883,-780364.2757,301.2411568,0.968163616,,
12900,-978635.2234,198143.7802,-780491.4432,300.8475934,0.968163616,,
13000,-978288.9514,197702.2046,-780586.7468,300.177136,0.968163616,,
13100,-977931.5027,198179.1642,-779752.3384,300.901318,0.968163616,,
13200,-976602.7134,196958.0204,-779644.693,299.047219,0.968163616,,
13300,-977568.424,197921.0859,-779647.3381,300.50947,0.968163616,,
13400,-977065.233,197676.7899,-779388.4431,300.1385482,0.968163616,,
13500,-976094.0576,197463.3769,-778630.6807,299.8145168,0.968163616,,
13600,-977795.0665,198717.574,-779077.4925,301.7188016,0.968163616,,
13700,-976754.438,197628.8922,-779125.5458,300.0658237,0.968163616,,
13800,-977003.2527,198004.1164,-778999.1363,300.6355377,0.968163616,,
13900,-977342.2688,198166.0255,-779176.2433,300.881369,0.968163616,,
14000,-976272.9603,197366.2903,-778906.67,299.6671074,0.968163616,,
14100,-977035.4594,198392.6809,-778642.7785,301.2255068,0.968163616,,
14200,-977593.2054,199232.2966,-778360.9088,302.5003202,0.968163616,,
14300,-976244.2025,198071.8343,-778172.3682,300.7383558,0.968163616,,
14400,-976798.4249,198341.8564,-778456.5686,301.1483383,0.968163616,,
14500,-976327.5312,197655.8145,-778671.7167,300.1067006,0.968163616,,
14600,-976584.5273,198328.1435,-778256.3838,301.1275177,0.968163616,,
14700,-976402.0794,197744.8001,-778657.2794,300.24181,0.968163616,,
14800,-976623.831,198057.1109,-778566.7201,300.7160008,0.968163616,,
14900,-976028.9499,197790.5727,-778238.3772,300.311308,0.968163616,,
15000,-976229.7812,197788.3812,-778441.4,300.3079805,0.968163616,,
15100,-976400.1536,197491.864,-778908.2896,299.8577696,0.968163616,,
15200,-976451.8612,197809.7128,-778642.1484,300.3403689,0.968163616,,
15300,-976991.4224,197947.247,-779044.1754,300.5491912,0.968163616,,
15400,-977494.5415,197019.4802,-780475.0612,299.1405354,0.968163616,,
15500,-977207.9713,196770.037,-780437.9343,298.7617982,0.968163616,,
15600,-978342.479,197001.8808,-781340.5982,299.1138136,0.968163616,,
15700,-977961.2357,197193.8243,-780767.4114,299.4052471,0.968163616,,
15800,-977352.1492,196780.8029,-780571.3463,298.7781445,0.968163616,,
15900,-977971.3765,197337.0633,-780634.3132,299.6227311,0.968163616,,
16000,-978381.715,197143.8142,-781237.9008,299.3293153,0.968163616,,
16100,-977610.1426,197495.0606,-780115.082,299.8626232,0.968163616,,
16200,-977376.3341,197308.5251,-780067.809,299.5794007,0.968163616,,
16300,-977716.4524,197190.8636,-780525.5888,299.4007519,0.968163616,,
16400,-978973.7465,198395.3251,-780578.4213,301.2295215,0.968163616,,
16500,-977212.556,196404.3126,-780808.2434,298.206508,0.968163616,,
16600,-977075.9964,196799.9357,-780276.0607,298.8071943,0.968163616,,
16700,-977364.2646,197696.0571,-779668.2075,300.1678021,0.968163616,,
16800,-976291.7429,196615.1396,-779676.6034,298.5266129,0.968163616,,
16900,-976982.8969,197795.2029,-779187.6939,300.3183382,0.968163616,,
17000,-977422.3055,198233.6124,-779188.6931,300.9839883,0.968163616,,
17100,-977356.3746,197830.9482,-779525.4264,300.3726113,0.968163616,,
17200,-976963.0298,198195.4221,-778767.6078,300.9260028,0.968163616,,
17300,-976887.1753,198080.453,-778806.7223,300.7514418,0.968163616,,
17400,-977219.3741,197613.0836,-779606.2904,300.041821,0.968163616,,
17500,-977680.3848,197764.276,-779916.1088,300.271381,0.968163616,,
17600,-977830.9927,197774.0972,-780056.8955,300.2862927,0.968163616,,
17700,-977527.2233,197512.976,-780014.2473,299.8898247,0.968163616,,
17800,-977231.958,197768.9822,-779462.9758,300.2785264,0.968163616,,
17900,-976307.1092,197228.4751,-779078.6342,299.4578584,0.968163616,,
18000,-977295.5823,197798.7205,-779496.8618,300.323679,0.968163616,,
18100,-977774.6502,198511.9331,-779262.7171,301.4065709,0.968163616,,
18200,-977384.8182,197583.5544,-779801.2638,299.9969859,0.968163616,,
18300,-977415.0272,198295.7149,-779119.3122,301.0782805,0.968163616,,
18400,-977090.4177,197909.0376,-779181.3801,300.4911768,0.968163616,,
18500,-976204.4587,197259.6089,-778944.8498,299.5051299,0.968163616,,
18600,-976649.289,197220.4926,-779428.7964,299.4457383,0.968163616,,
18700,-976332.0012,196909.5423,-779422.459,298.9736132,0.968163616,,
18800,-976688.5235,197415.7709,-779272.7526,299.7422353,0.968163616,,
18900,-975715.0436,196399.2958,-779315.7478,298.1988909,0.968163616,,
19000,-977253.1944,198097.6402,-779155.5542,300.7775377,0.968163616,,
19100,-976778.2995,197543.431,-779234.8685,299.9360654,0.968163616,,
19200,-976740.1091,198114.2442,-778625.8649,300.802748,0.968163616,,
19300,-975885.6603,197587.9262,-778297.734,300.0036238,0.968163616,,
19400,-975813.7255,197535.6972,-778278.0283,299.9243229,0.968163616,,
19500,-976734.8744,198404.6767,-778330.1977,301.2437204,0.968163616,,
19600,-976415.9521,197333.6019,-779082.3502,299.6174755,0.968163616,,
19700,-976963.8765,197668.3998,-779295.4766,300.1258093,0.968163616,,
19800,-976962.3323,197721.271,-779241.0613,300.2060852,0.968163616,,
19900,-976720.5985,197497.5798,-779223.0187,299.8664481,0.968163616,,
20000,-977475.3258,197258.3672,-780216.9585,299.5032446,0.968163616,,
20100,-976840.3643,197315.7059,-779524.6584,299.5903036,0.968163616,,
20200,-976921.2947,197380.232,-779541.0626,299.6882755,0.968163616,,
20300,-976577.0972,197270.2299,-779306.8673,299.521256,0.968163616,,
20400,-976594.9829,197425.4018,-779169.5811,299.7568581,0.968163616,,
20500,-976813.3166,197353.3363,-779459.9803,299.6474389,0.968163616,,
20600,-976659.6711,197513.7691,-779145.902,299.8910288,0.968163616,,
20700,-976152.794,196689.5917,-779463.2022,298.6396558,0.968163616,,
20800,-976846.3962,197444.0343,-779402.3618,299.7851485,0.968163616,,
20900,-977507.6646,198405.9083,-779101.7562,301.2455904,0.968163616,,
21000,-977343.8303,198216.6187,-779127.2116,300.9581862,0.968163616,,
21100,-977735.1136,199104.4376,-778630.676,302.3061881,0.968163616,,
21200,-977028.2838,197986.6028,-779041.681,300.6089463,0.968163616,,
21300,-976975.6877,197448.1631,-779527.5246,299.7914172,0.968163616,,
21400,-977402.9956,197615.9537,-779787.0419,300.0461787,0.968163616,,
21500,-977357.3188,197977.5979,-779379.7209,300.5952739,0.968163616,,
21600,-977492.6377,197879.8931,-779612.7447,300.4469257,0.968163616,,
21700,-977554.9344,198201.6542,-779353.2802,300.9354653,0.968163616,,
21800,-977955.3364,199132.2622,-778823.0742,302.348435,0.968163616,,
21900,-977336.1422,198262.2001,-779073.9421,301.0273938,0.968163616,,
22000,-976903.5683,198193.8298,-778709.7384,300.9235853,0.968163616,,
22100,-976852.0528,197315.7938,-779536.259,299.5904371,0.968163616,,
22200,-976977.5738,197410.7132,-779566.8606,299.734556,0.968163616,,
22300,-977392.1655,197629.6916,-779762.4739,300.0670374,0.968163616,,
22400,-977922.8781,198101.9888,-779820.8892,300.7841403,0.968163616,,
22500,-977523.9666,197729.6316,-779794.335,300.2187792,0.968163616,,
22600,-977574.4804,196980.0109,-780594.4695,299.0806079,0.968163616,,
22700,-977325.8591,196060.8884,-781264.9707,297.6850769,0.968163616,,
22800,-978557.8793,196928.3673,-781629.512,299.0021959,0.968163616,,
22900,-978815.8967,197136.0727,-781679.824,299.3175612,0.968163616,,
23000,-977867.3932,196468.6757,-781398.7175,298.3042325,0.968163616,,
23100,-977823.3996,197099.584,-780723.8156,299.2621593,0.968163616,,
23200,-978175.4663,197138.7161,-781036.7501,299.3215748,0.968163616,,
23300,-978045.7936,196915.8304,-781129.9633,298.9831606,0.968163616,,
23400,-977584.9845,196582.8173,-781002.1672,298.4775369,0.968163616,,
23500,-978139.0831,197002.7448,-781136.3384,299.1151254,0.968163616,,
23600,-977794.3176,196305.7637,-781488.5538,298.0568784,0.968163616,,
23700,-978091.9932,196280.8045,-781811.1887,298.0189821,0.968163616,,
23800,-979271.2565,197797.9594,-781473.2971,300.3225234,0.968163616,,
23900,-977516.6337,196245.233,-781271.4007,297.9649728,0.968163616,,
24000,-978293.8342,196888.6236,-781405.2106,298.9418518,0.968163616,,
24100,-978771.1095,197614.5017,-781156.6077,300.0439742,0.968163616,,
24200,-979179.3192,198106.3956,-781072.9236,300.7908313,0.968163616,,
24300,-978327.7674,196930.6479,-781397.1195,299.0056586,0.968163616,,
24400,-978619.0696,197243.7481,-781375.3214,299.4810479,0.968163616,,
24500,-979263.8216,197846.9776,-781416.844,300.3969492,0.968163616,,
24600,-977889.2651,196804.399,-781084.8661,298.8139711,0.968163616,,
24700,-977499.0208,196846.8071,-780652.2137,298.8783605,0.968163616,,
24800,-977368.3295,196926.2348,-780442.0947,298.998958,0.968163616,,
24900,-977688.3799,197611.4517,-780076.9282,300.0393432,0.968163616,,
25000,-977890.0922,197357.9952,-780532.0971,299.6545127,0.968163616,,
25100,-978260.5351,197651.0996,-780609.4355,300.0995418,0.968163616,,
25200,-977552.6066,197456.7943,-780095.8123,299.8045222,0.968163616,,
25300,-977492.3001,198344.1892,-779148.1109,301.1518803,0.968163616,,
25400,-977327.82,198051.4948,-779276.3251,300.7074738,0.968163616,,
25500,-977424.4682,197567.9383,-779856.5299,299.9732755,0.968163616,,
25600,-977480.5588,197648.6982,-779831.8606,300.0958956,0.968163616,,
25700,-977553.3006,197718.271,-779835.0297,300.2015301,0.968163616,,
25800,-977114.5781,197624.6577,-779489.9204,300.0593943,0.968163616,,
25900,-977735.9087,198104.0339,-779631.8749,300.7872454,0.968163616,,
26000,-976938.5913,197445.0756,-779493.5158,299.7867294,0.968163616,,
26100,-977343.9156,197285.5654,-780058.3502,299.5445404,0.968163616,,
26200,-977761.3836,197265.7484,-780495.6352,299.5144516,0.968163616,,
26300,-977050.9737,197146.6343,-779904.3393,299.3335972,0.968163616,,
26400,-977489.3442,197427.4344,-780061.9097,299.7599443,0.968163616,,
26500,-977046.4214,196492.4478,-780553.9737,298.3403263,0.968163616,,
26600,-977682.4721,196527.1753,-781155.2968,298.3930541,0.968163616,,
26700,-978867.3618,197282.6266,-781584.7352,299.5400783,0.968163616,,
26800,-979218.2368,197947.083,-781271.1538,300.5489422,0.968163616,,
26900,-977945.6052,196968.4975,-780977.1077,299.0631267,0.968163616,,
27000,-978581.917,197023.4137,-781558.5033,299.1465077,0.968163616,,
27100,-978552.963,197295.7528,-781257.2102,299.5600082,0.968163616,,
27200,-977285.2988,196378.6034,-780906.6954,298.167473,0.968163616,,
27300,-977931.8302,196478.8132,-781453.0169,298.3196246,0.968163616,,
27400,-979178.8912,198012.3294,-781166.5617,300.6480078,0.968163616,,
27500,-977796.4492,197074.4513,-780721.9979,299.2239995,0.968163616,,
27600,-978354.2027,197706.1728,-780648.03,300.183161,0.968163616,,
27700,-978080.32,197368.0352,-780712.2848,299.6697568,0.968163616,,
27800,-977709.1334,197513.537,-780195.5964,299.8906764,0.968163616,,
27900,-978018.884,198202.2268,-779816.6572,300.9363346,0.968163616,,
28000,-977231.0729,197524.002,-779707.0708,299.9065658,0.968163616,,
28100,-977749.5165,197933.4951,-779816.0214,300.5283113,0.968163616,,
28200,-977857.8541,197741.2175,-780116.6365,300.2363706,0.968163616,,
28300,-978735.1,198598.548,-780136.552,301.5380808,0.968163616,,
28400,-978669.7245,198543.5373,-780126.1871,301.4545566,0.968163616,,
28500,-978057.674,197568.7266,-780488.9474,299.9744725,0.968163616,,
28600,-978944.5433,198189.8933,-780754.65,300.9176082,0.968163616,,
28700,-979293.3667,198136.8103,-781156.5564,300.8370108,0.968163616,,
