#"Step","Potential Energy (kJ/mole)","Kinetic Energy (kJ/mole)","Total Energy (kJ/mole)","Temperature (K)","Density (g/mL)"
100,-1228684.5282541234,3507.2533328905192,-1225177.2749212328,5.332841777680951,0.9679000464301194
200,-1226127.5785937402,6554.881358166338,-1219572.697235574,9.966815007846106,0.9679000464301194
300,-1223931.9073731545,9342.044402695377,-1214589.8629704593,14.204746549798074,0.9679000464301194
400,-1222000.8713423107,11928.896385732607,-1210071.974956578,18.138101519753526,0.9679000464301194
500,-1220331.2828489337,14143.338726930166,-1206187.9441220036,21.50520093075367,0.9679000464301194
600,-1218787.9783763196,16182.76053144161,-1202605.217844878,24.60617846762543,0.9679000464301194
700,-1217353.8619391676,17971.294334032005,-1199382.5676051355,27.325676284849788,0.9679000464301194
800,-1216334.702491099,19732.783095387324,-1196601.9193957117,30.004051630416637,0.9679000464301194
900,-1215320.2249644045,21173.18063906738,-1194147.044325337,32.19420200403546,0.9679000464301194
1000,-1214498.5424815807,22668.832418448193,-1191829.7100631325,34.46836743689608,0.9679000464301194
1100,-1213659.7447409425,23823.877947369634,-1189835.866793573,36.224634939443256,0.9679000464301194
1200,-1212873.462180214,24761.953653236153,-1188111.5085269779,37.65099592339578,0.9679000464301194
1300,-1212456.5512645412,25894.716904088462,-1186561.8343604528,39.37338282134714,0.9679000464301194
1400,-1212066.974338362,26778.04659072187,-1185288.92774764,40.716501498338225,0.9679000464301194
1500,-1211658.3097536955,27622.82055456002,-1184035.4891991355,42.00099550531672,0.9679000464301194
1600,-1211055.8853002135,28017.82918101862,-1183038.056119195,42.601613226873404,0.9679000464301194
1700,-1211127.9526402596,28903.780832799406,-1182224.1718074603,43.9487186490324,0.9679000464301194
1800,-1210954.6358812992,29502.107077829547,-1181452.5288034696,44.85848446670431,0.9679000464301194
1900,-1210847.440705115,30062.43083671425,-1180785.0098684006,45.71046682064078,0.9679000464301194
2000,-1210653.5881787036,30361.56062098841,-1180292.027557715,46.16529903808178,0.9679000464301194
2100,-1210589.2671565264,30725.248840078042,-1179864.0183164484,46.71829351687329,0.9679000464301194
2200,-1210879.6435334682,31273.06146845808,-1179606.5820650102,47.551252471839504,0.9679000464301194
2300,-1210828.788075814,31402.89397388535,-1179425.8941019287,47.74866513164099,0.9679000464301194
2400,-1210766.5938100833,31650.793030413035,-1179115.8007796702,48.12560010605557,0.9679000464301194
2500,-1211032.0455270912,32106.01750635959,-1178926.0280207316,48.817777109862114,0.9679000464301194
2600,-1210928.3780250195,32176.7881803036,-1178751.589844716,48.92538519254721,0.9679000464301194
2700,-1211069.3606695328,32393.517141015793,-1178675.843528517,49.254925475617334,0.9679000464301194
2800,-1211324.88630593,32651.7779491306,-1178673.1083567995,49.64761567969711,0.9679000464301194
2900,-1211279.1500562448,32770.881828330996,-1178508.2682279139,49.828715270344674,0.9679000464301194
3000,-1211391.0640189815,32878.75867284703,-1178512.3053461346,49.9927439528138,0.9679000464301194
3100,-1211635.5349642914,33165.062079958036,-1178470.4728843332,50.428073433069976,0.9679000464301194
3200,-1211767.631098317,33291.21964483441,-1178476.4114534825,50.61989827966261,0.9679000464301194
3300,-1211882.9388887826,33429.29170283867,-1178453.647185944,50.82983932736237,0.9679000464301194
3400,-1212096.973603258,33454.65025448099,-1178642.323348777,50.868397461259185,0.9679000464301194
3500,-1212270.3186495993,33389.888732057734,-1178880.4299175416,50.7699264015481,0.9679000464301194
3600,-1212644.078923246,33557.027730382986,-1179087.051192863,51.02406425483344,0.9679000464301194
3700,-1212748.9259055872,33572.04697142547,-1179176.8789341617,51.04690128098986,0.9679000464301194
3800,-1212984.8248037565,33582.682076091805,-1179402.1427276647,51.06307214892882,0.9679000464301194
3900,-1213239.7745106947,33525.03409149937,-1179714.7404191953,50.97541735144081,0.9679000464301194
4000,-1213414.2140982766,33622.49444740311,-1179791.7196508734,51.123607575613406,0.9679000464301194
4100,-1213523.91159142,33584.643939000845,-1179939.2676524192,51.06605519677007,0.9679000464301194
4200,-1213653.3536904547,33526.94400970126,-1180126.4096807535,50.97832141642052,0.9679000464301194
4300,-1213723.5408221576,33507.58296600891,-1180215.9578561487,50.9488826012389,0.9679000464301194
4400,-1214069.579211304,33719.98456666854,-1180349.5946446355,51.271843055512804,0.9679000464301194
4500,-1214350.9648755882,33647.141045029115,-1180703.8238305592,51.16108317062248,0.9679000464301194
4600,-1214404.4840281066,33675.695499001566,-1180728.788529105,51.204500731497006,0.9679000464301194
4700,-1214648.5616224948,33881.44108897177,-1180767.1205335231,51.51734060179587,0.9679000464301194
4800,-1214731.4513441864,33701.734195235156,-1181029.7171489513,51.24409303747863,0.9679000464301194
4900,-1214703.5638995785,33546.21392210721,-1181157.3499774714,51.00762166484198,0.9679000464301194
5000,-1214972.9309291579,33784.42377762708,-1181188.5071515308,51.36982403484437,0.9679000464301194
5100,-1215118.294467697,33781.840880003554,-1181336.4535876934,51.36589669254917,0.9679000464301194
5200,-1215192.4583605025,33618.26080940721,-1181574.1975510954,51.11717025289013,0.9679000464301194
5300,-1215456.0253669675,33709.01802376291,-1181747.0073432047,51.25516822976941,0.9679000464301194
5400,-1215508.753562251,33627.15997232075,-1181881.5935899303,51.130701590169544,0.9679000464301194
5500,-1215820.4685511831,33676.2075301937,-1182144.2610209894,51.20527928413456,0.9679000464301194
5600,-1216008.3552061114,33779.474074384154,-1182228.8811317272,51.3622979220331,0.9679000464301194
5700,-1216126.8985302541,33672.57673814145,-1182454.3217921127,51.199758599511995,0.9679000464301194
5800,-1216079.8923620936,33598.50233062598,-1182481.3900314677,51.087127130507206,0.9679000464301194
5900,-1216487.484679753,33837.880409982754,-1182649.6042697702,51.451105805866455,0.9679000464301194
6000,-1216534.0053220633,33760.64921354156,-1182773.3561085218,51.33367438251887,0.9679000464301194
6100,-1216510.9927057866,33690.362589201904,-1182820.6301165847,51.22680230596381,0.9679000464301194
6200,-1216511.3367220853,33473.88732273008,-1183037.449399355,50.89764776954937,0.9679000464301194
6300,-1217016.5119213853,33866.76730510487,-1183149.7446162805,51.49502884948867,0.9679000464301194
6400,-1217001.8160208464,33628.81347458008,-1183373.0025462662,51.13321577009643,0.9679000464301194
6500,-1217184.3124026079,33767.897014759685,-1183416.4153878482,51.34469479463734,0.9679000464301194
6600,-1217142.7481867317,33640.86802674914,-1183501.8801599825,51.15154493349491,0.9679000464301194
6700,-1217423.7145776842,33669.31198993443,-1183754.4025877498,51.19479449114016,0.9679000464301194
6800,-1217442.6502131019,33634.64458391702,-1183808.005629185,51.142082076727505,0.9679000464301194
6900,-1217499.3797130603,33489.670288686924,-1184009.7094243735,50.921646053175216,0.9679000464301194
7000,-1217778.8714297283,33571.47804041281,-1184207.3933893156,51.04603621115174,0.9679000464301194
7100,-1217834.1307843644,33537.55505813617,-1184296.5757262283,50.99445570642689,0.9679000464301194
7200,-1218002.857107902,33515.755337027986,-1184487.1017708739,50.96130883836997,0.9679000464301194
7300,-1218177.5896511357,33589.38150228052,-1184588.2081488553,51.073258746951446,0.9679000464301194
7400,-1218189.9697512332,33413.51535158489,-1184776.4543996484,50.805851101511514,0.9679000464301194
7500,-1218279.4354907963,33306.39746775191,-1184973.0380230444,50.642976432412404,0.9679000464301194
7600,-1218470.9974302854,33346.87450874959,-1185124.1229215357,50.70452250131056,0.9679000464301194
7700,-1218439.3848595638,33224.696922462506,-1185214.6879371013,50.51874928375088,0.9679000464301194
7800,-1218470.4481148515,33246.38922003831,-1185224.058894813,50.55173281239458,0.9679000464301194
7900,-1218790.8216754142,33421.574312213204,-1185369.247363201,50.81810489610352,0.9679000464301194
8000,-1219040.8681036439,33464.48563956323,-1185576.3824640806,50.883352341185955,0.9679000464301194
8100,-1218807.9741964117,33281.57720905811,-1185526.3969873535,50.6052367826261,0.9679000464301194
8200,-1218936.2341121007,33428.21684401394,-1185508.0172680868,50.82820498518586,0.9679000464301194
8300,-1219051.4523705412,33296.84224750826,-1185754.610123033,50.62844754816204,0.9679000464301194
8400,-1219113.634543473,33232.44134344731,-1185881.1932000257,50.530524815157285,0.9679000464301194
8500,-1219415.5449549053,33452.756101750776,-1185962.7888531545,50.86551736796273,0.9679000464301194
8600,-1219343.8794751633,33311.80529086257,-1186032.0741843008,50.65119912472276,0.9679000464301194
8700,-1219436.9204518292,33282.37690773747,-1186154.5435440917,50.606452738852255,0.9679000464301194
8800,-1219471.5154019464,33239.66590136694,-1186231.8495005795,50.54150988542233,0.9679000464301194
8900,-1219601.067988554,33239.617110826446,-1186361.4508777275,50.54143569852791,0.9679000464301194
9000,-1219784.6388713215,33292.8464853812,-1186491.7923859402,50.622371919976004,0.9679000464301194
9100,-1219736.2185983602,33142.499935486914,-1186593.7186628734,50.39376728657599,0.9679000464301194
9200,-1220030.9803599808,33303.57988251837,-1186727.4004774624,50.63869224338485,0.9679000464301194
9300,-1219996.9836516697,33222.13351441476,-1186774.850137255,50.51485157570622,0.9679000464301194
9400,-1220119.9001894686,33276.24797546053,-1186843.6522140082,50.597133587083974,0.9679000464301194
9500,-1219918.9357939307,33040.64937720503,-1186878.2864167257,50.23890168072079,0.9679000464301194
9600,-1220027.1165842656,33184.07769623949,-1186843.038888026,50.45698701966011,0.9679000464301194
9700,-1220102.7634134423,33185.6887296119,-1186917.0746838304,50.45943662488055,0.9679000464301194
9800,-1220077.3564681504,33160.684256959896,-1186916.6722111905,50.421416874457336,0.9679000464301194
9900,-1220178.5375308674,33185.59027720819,-1186992.9472536591,50.45928692622984,0.9679000464301194
10000,-1220302.0621171836,33158.85767409697,-1187143.2044430866,50.418639522359484,0.9679000464301194
10100,-1220323.7986389194,33000.446676601874,-1187323.3519623175,50.177772751327076,0.9679000464301194
10200,-1220346.9957497362,33020.793852352464,-1187326.2018973837,50.20871099804082,0.9679000464301194
10300,-1220624.075100651,33160.40307406313,-1187463.6720265879,50.420989330805156,0.9679000464301194
10400,-1220399.624963725,32978.762674571335,-1187420.8622891537,50.144801836209155,0.9679000464301194
10500,-1220526.674291307,33143.7012201694,-1187382.9730711377,50.39559386154323,0.9679000464301194
10600,-1220520.085713068,33098.190886243574,-1187421.8948268245,50.32639458021392,0.9679000464301194
10700,-1220573.2347654942,33068.62974960686,-1187504.6050158874,50.28144634024117,0.9679000464301194
10800,-1220589.2844634596,33151.12088693363,-1187438.163576526,50.406875598315914,0.9679000464301194
10900,-1220905.111565167,33424.195617984304,-1187480.9159471828,50.82209063867794,0.9679000464301194
11000,-1220749.985446075,33114.17399535296,-1187635.811450722,50.35069718510318,0.9679000464301194
11100,-1220808.8543555979,33186.5395944481,-1187622.3147611497,50.460730380168506,0.9679000464301194
11200,-1220939.811834881,33233.052387053045,-1187706.759447828,50.531453917950664,0.9679000464301194
11300,-1220903.0925318617,33177.25891731823,-1187725.8336145435,50.44661894366085,0.9679000464301194
11400,-1221011.7050210852,33114.36337919722,-1187897.341641888,50.35098514664482,0.9679000464301194
11500,-1221016.9294440541,33121.254743240774,-1187895.6747008134,50.36146358962812,0.9679000464301194
11600,-1221071.4297722224,33241.19666504834,-1187830.233107174,50.54383743913375,0.9679000464301194
11700,-1221143.6509499345,33232.095079931205,-1187911.5558700033,50.529998315252804,0.9679000464301194
11800,-1221233.7675863598,33316.988939521005,-1187916.7786468389,50.65908095574629,0.9679000464301194
11900,-1221163.8000669573,33110.20863350793,-1188053.5914334494,50.34466778109278,0.9679000464301194
12000,-1221402.3704785798,33324.93698309842,-1188077.4334954813,50.671166098967326,0.9679000464301194
12100,-1221394.283527851,33256.332123546876,-1188137.9514043042,50.56685117602252,0.9679000464301194
12200,-1221412.831519561,33169.758151762464,-1188243.0733677985,50.435213894716924,0.9679000464301194
12300,-1221448.2638785336,33074.01818309497,-1188374.2456954387,50.289639550281684,0.9679000464301194
12400,-1221614.8167238925,33133.05225564692,-1188481.7644682454,50.37940191944371,0.9679000464301194
12500,-1221632.5835865382,33121.132398308815,-1188511.4511882295,50.36127756195846,0.9679000464301194
12600,-1221681.9218783919,33146.91455800671,-1188535.0073203852,50.400479799523225,0.9679000464301194
12700,-1221676.9624193702,32988.57650361516,-1188688.385915755,50.15972393979179,0.9679000464301194
12800,-1221895.0059204716,33111.76990758648,-1188783.236012885,50.34704172641188,0.9679000464301194
12900,-1221830.9132826459,32958.54332752523,-1188872.3699551206,50.114057955339845,0.9679000464301194
13000,-1221903.8103261385,33063.57866995342,-1188840.2316561851,50.273766082774266,0.9679000464301194
13100,-1221826.7911643405,33078.80083150948,-1188747.990332831,50.29691165322151,0.9679000464301194
13200,-1221909.9348992202,33028.72372116218,-1188881.211178058,50.22076850620068,0.9679000464301194
13300,-1222000.8508470748,33006.06229286316,-1188994.7885542116,50.18631139686054,0.9679000464301194
13400,-1221980.7348459084,32958.988755221726,-1189021.7460906866,50.11473523616428,0.9679000464301194
13500,-1222017.9105582777,33009.7149578254,-1189008.1956004524,50.19186533963617,0.9679000464301194
13600,-1222230.0425174404,33131.74856375002,-1189098.2939536904,50.37741963246494,0.9679000464301194
13700,-1222213.0846555028,33242.34234117333,-1188970.7423143294,50.545579460289105,0.9679000464301194
13800,-1222229.438000122,33278.09405973794,-1188951.3439403842,50.59994059143331,0.9679000464301194
13900,-1222171.3782481942,33127.77956014457,-1189043.5986880497,50.371384691092324,0.9679000464301194
14000,-1222270.9175517652,33064.86172233625,-1189206.055829429,50.27571698700064,0.9679000464301194
14100,-1222275.13345089,32996.86805401568,-1189278.2653968744,50.17233139131603,0.9679000464301194
14200,-1222393.4879325759,33089.08626049763,-1189304.4016720783,50.31255083300216,0.9679000464301194
14300,-1222511.137550706,33213.70785106289,-1189297.429699643,50.50204020302716,0.9679000464301194
14400,-1222340.521258561,33028.42235243354,-1189312.0989061275,50.22031026962805,0.9679000464301194
14500,-1222597.7314954195,33116.86163056122,-1189480.8698648582,50.35478378277988,0.9679000464301194
14600,-1222485.5579132233,33031.270204889326,-1189454.287708334,50.22464048051144,0.9679000464301194
14700,-1222435.35240517,32970.028334886694,-1189465.3240702832,50.13152111561396,0.9679000464301194
14800,-1222576.499548642,33099.7605051452,-1189476.7390434968,50.3287812139866,0.9679000464301194
14900,-1222705.9827006627,33125.29167493849,-1189580.6910257242,50.367601816886854,0.9679000464301194
15000,-1222580.0092703644,32968.08515389482,-1189611.9241164697,50.12856647396378,0.9679000464301194
15100,-1222632.6842668895,32814.43056557211,-1189818.2537013174,49.894931908631605,0.9679000464301194
15200,-1222812.286455283,33142.406302335745,-1189669.8801529473,50.39362491568545,0.9679000464301194
15300,-1222845.715138087,33165.82815307411,-1189679.886985013,50.429238261022334,0.9679000464301194
15400,-1222841.8652719166,33156.85049858717,-1189685.0147733295,50.41558757589373,0.9679000464301194
15500,-1222927.960047396,33220.66688664191,-1189707.293160754,50.512621541797344,0.9679000464301194
15600,-1222744.7065948043,32950.28963119167,-1189794.4169636127,50.1015080616053,0.9679000464301194
15700,-1222930.0587660018,32993.119776409294,-1189936.9389895925,50.16663206779519,0.9679000464301194
15800,-1223068.1127372924,33170.05866129632,-1189898.0540759962,50.43567082486843,0.9679000464301194
15900,-1222778.7609559093,32955.35352912382,-1189823.4074267854,50.109207809495544,0.9679000464301194
16000,-1222915.8991296683,33026.665279567365,-1189889.2338501008,50.21763860873053,0.9679000464301194
16100,-1222919.576311143,32863.87014391812,-1190055.706167225,49.97010567677718,0.9679000464301194
16200,-1223012.761016571,32899.391087728494,-1190113.3699288424,50.024115910756635,0.9679000464301194
16300,-1223230.6187629737,33121.385250737585,-1190109.233512236,50.361662028624465,0.9679000464301194
16400,-1223121.0009532887,33069.44968593995,-1190051.5512673487,50.28269306818384,0.9679000464301194
16500,-1223006.2126961295,32901.854511909325,-1190104.35818422,50.02786159153324,0.9679000464301194
16600,-1223117.1334977616,33012.647928349914,-1190104.4855694117,50.19632497407408,0.9679000464301194
16700,-1223075.3440487925,33029.67373486094,-1190045.6703139315,50.22221301911755,0.9679000464301194
16800,-1223296.454543868,33053.373198206915,-1190243.081345661,50.25824847941772,0.9679000464301194
16900,-1223263.1001924332,32934.06612331103,-1190329.0340691223,50.076839926060295,0.9679000464301194
17000,-1223535.0788093153,33148.59004263485,-1190386.4887666805,50.40302740403728,0.9679000464301194
17100,-1223262.04510378,32814.958305198714,-1190447.0867985813,49.89573434622632,0.9679000464301194
17200,-1223528.0329850186,32962.21699078061,-1190565.815994238,50.11964382639788,0.9679000464301194
17300,-1223419.5361654852,32964.36382316975,-1190455.1723423153,50.12290812366068,0.9679000464301194
17400,-1223550.7952736523,33083.61364507972,-1190467.1816285725,50.304229622823215,0.9679000464301194
17500,-1223635.5550240483,33163.949440624856,-1190471.6055834235,50.42638164495081,0.9679000464301194
17600,-1223483.7582696471,33132.89362340891,-1190350.8646462383,50.379160716272494,0.9679000464301194
17700,-1223241.780891491,32949.270346045945,-1190292.5105454451,50.09995822020733,0.9679000464301194
17800,-1223314.412225889,33034.645143632675,-1190279.7670822563,50.22977213557578,0.9679000464301194
17900,-1223501.037817875,33221.52924784001,-1190279.508570035,50.51393277751035,0.9679000464301194
18000,-1223438.1825416703,33134.39159206848,-1190303.7909496017,50.38143840456336,0.9679000464301194
18100,-1223451.7195205633,33039.13271438924,-1190412.586806174,50.236595567629145,0.9679000464301194
18200,-1223546.0120838229,33077.36124722752,-1190468.6508365953,50.294722739426966,0.9679000464301194
18300,-1223718.2411616836,33195.56184195892,-1190522.6793197247,50.47444886979203,0.9679000464301194
18400,-1223676.545668641,33098.53061289042,-1190578.0150557507,50.32691114069112,0.9679000464301194
18500,-1223610.8848851677,33085.11974012524,-1190525.7651450424,50.30651966743009,0.9679000464301194
18600,-1223776.0112231094,33240.9547071268,-1190535.0565159826,50.543469537761965,0.9679000464301194
18700,-1223636.2140688915,33157.22172426013,-1190478.9923446313,50.416152031206714,0.9679000464301194
18800,-1223736.7054138016,33245.097525885634,-1190491.607887916,50.549768768201716,0.9679000464301194
18900,-1223783.7827792037,33248.333569182534,-1190535.4492100212,50.554689230241415,0.9679000464301194
19000,-1223648.996084774,33200.410878324146,-1190448.5852064497,50.48182191680503,0.9679000464301194
19100,-1223672.9966288004,33127.937399309754,-1190545.0592294906,50.37162468838205,0.9679000464301194
19200,-1223917.8554039095,33154.20632849244,-1190763.649075417,50.41156706770396,0.9679000464301194
19300,-1223772.8226581607,32965.25908877897,-1190807.5635693818,50.12426939112266,0.9679000464301194
19400,-1223905.7284123395,33182.148461138364,-1190723.579951201,50.45405358298767,0.9679000464301194
19500,-1223827.6690732557,32933.547104216064,-1190894.1219690396,50.076050748190795,0.9679000464301194
19600,-1224020.2671093438,33025.00568870023,-1190995.2614206437,50.215115170965966,0.9679000464301194
19700,-1224040.8678239603,32975.24470248059,-1191065.6231214798,50.13945269636736,0.9679000464301194
