#"Step","Potential Energy (kJ/mole)","Kinetic Energy (kJ/mole)","Total Energy (kJ/mole)","Temperature (K)","Density (g/mL)"
100,-1440832.5388591373,98584.76543205034,-1342247.7734270869,119.72603343967658,0.9685739498875445
200,-1348116.520362717,176960.67093514538,-1171155.8494275718,214.9094650987616,0.9685739498875445
300,-1261089.08152501,245038.57001494383,-1016050.5115100662,297.586507398454,0.9685739498875445
400,-1178259.9382461393,303373.1980614582,-874886.7401846811,368.4308574111537,0.9685739498875445
500,-1102029.4245725507,358572.1027482174,-743457.3218243333,435.4670356624023,0.9685739498875445
600,-1032623.5034450376,407821.09422213305,-624802.4092229046,495.27735599166715,0.9685739498875445
700,-967291.2243393986,455835.8308596064,-511455.39347979217,553.5887384761916,0.9685739498875445
800,-917463.2117125476,508240.39273175615,-409222.81898079143,617.2313337554905,0.9685739498875445
900,-864464.7769247973,549017.0339185662,-315447.74300623115,666.7524284692032,0.9685739498875445
1000,-825278.3744511092,591367.0292580063,-233911.34519310296,718.1842793840864,0.9685739498875445
1100,-792097.7630009586,634978.4338283539,-157119.32917260472,771.1480457333563,0.9685739498875445
1200,-762334.4019071097,671143.9093434796,-91190.4925636301,815.0691212860507,0.9685739498875445
1300,-735281.4341383362,701837.4740534489,-33443.96008488734,852.3448478016405,0.9685739498875445
1400,-715137.3237843709,736385.3239543845,21248.000170013634,894.301401782177,0.9685739498875445
1500,-695799.4343526894,764024.1599588965,68224.72560620704,927.8673203012074,0.9685739498875445
1600,-679428.6767345229,789588.3961897409,110159.71945521794,958.9137460691265,0.9685739498875445
1700,-664641.025315755,812291.329054753,147650.3037389979,986.4852687832384,0.9685739498875445
1800,-653110.1174667561,831454.4205149966,178344.3030482405,1009.7578395391944,0.9685739498875445
1900,-641248.4060951853,850387.7730546857,209139.36695950036,1032.751404410578,0.9685739498875445
2000,-627075.4579555774,860801.419413632,233725.9614580546,1045.3982324142369,0.9685739498875445
2100,-618949.0574216628,874333.7051192458,255384.64769758296,1061.8324845403656,0.9685739498875445
2200,-611073.3841818804,886375.2251806543,275301.8409987739,1076.4562798825618,0.9685739498875445
2300,-607439.6789294863,901164.6193375883,293724.940408102,1094.4172243715566,0.9685739498875445
2400,-598933.2268624539,908611.4441107039,309678.21724825003,1103.4610029705937,0.9685739498875445
2500,-591479.8681810582,914603.0353508061,323123.1671697479,1110.7374766734576,0.9685739498875445
2600,-589083.7573409164,925779.8155745735,336696.05823365704,1124.3110907806092,0.9685739498875445
2700,-586606.6379625732,936425.847213371,349819.20925079775,1137.240138533581,0.9685739498875445
2800,-580220.2529716874,940989.6336362914,360769.380664604,1142.7826180788486,0.9685739498875445
2900,-581815.874581554,950734.1796108432,368918.3050292892,1154.6168587152256,0.9685739498875445
3000,-574440.3027446801,949973.0651482635,375532.7624035834,1153.6925250699721,0.9685739498875445
3100,-572668.7034460539,954023.7106127876,381355.00716673373,1158.6118218011914,0.9685739498875445
3200,-571894.5806704992,960107.4336818419,388212.8530113427,1166.0001847841652,0.9685739498875445
3300,-571077.5495706433,963695.5132454946,392617.9636748512,1170.3577194594209,0.9685739498875445
3400,-569043.5944458535,966291.7381283892,397248.14368253574,1173.5106985813381,0.9685739498875445
3500,-566785.0908060754,967232.7860710516,400447.69526497624,1174.6535520126747,0.9685739498875445
3600,-563077.2740504676,973532.2801339659,410455.00608349824,1182.3039575649336,0.9685739498875445
3700,-561197.0479798401,975619.4534919192,414422.40551207913,1184.8387202755166,0.9685739498875445
3800,-561038.325728246,975148.7442467021,414110.41851845605,1184.267068554419,0.9685739498875445
3900,-560332.3433890203,978639.9893183408,418307.6459293205,1188.5070028116165,0.9685739498875445
4000,-558396.8052904392,979135.5130019793,420738.70771154016,1189.1087903683194,0.9685739498875445
4100,-557843.5877804244,975433.5137420066,417589.9259615822,1184.612906189352,0.9685739498875445
4200,-557760.2138249511,978452.0479099697,420691.8340850186,1188.2787578161071,0.9685739498875445
4300,-560975.5847793305,982811.720384381,421836.1356050505,1193.5733516630355,0.9685739498875445
4400,-556883.7874786342,979732.0770421412,422848.2895635071,1189.8332861452104,0.9685739498875445
4500,-560972.8964858288,981274.5174481557,420301.6209623269,1191.706499220475,0.9685739498875445
4600,-558224.4890641654,980541.0753639127,422316.58629974735,1190.8157722291462,0.9685739498875445
4700,-556508.1322990442,978061.9847246229,421553.85242557875,1187.8050465102299,0.9685739498875445
4800,-560080.4718628014,980951.8054273806,420871.33356457925,1191.314582375906,0.9685739498875445
4900,-556377.8833744014,979682.2441640142,423304.36078961287,1189.7727667251268,0.9685739498875445
5000,-560264.9507722938,982177.3816720736,421912.4308997798,1192.8029805255787,0.9685739498875445
5100,-555389.5279575074,976122.9723932614,420733.444435754,1185.4502176053059,0.9685739498875445
5200,-556862.625640803,979037.3133510702,422174.68771026714,1188.9895320362941,0.9685739498875445
5300,-554807.8665908063,978263.3034378528,423455.4368470465,1188.0495375417454,0.9685739498875445
5400,-556878.4110009111,982706.3969504444,425827.9859495333,1193.4454418696894,0.9685739498875445
5500,-556118.3288340056,980838.9230932558,424720.5942592502,1191.1774926942403,0.9685739498875445
5600,-558151.2839736724,977974.5159713203,419823.2319976479,1187.69882029123,0.9685739498875445
5700,-555986.3689251626,978881.6381082607,422895.2691830981,1188.8004726086567,0.9685739498875445
5800,-553460.4623676622,976491.2823091345,423030.81994147226,1185.8975107049116,0.9685739498875445
5900,-556829.556929932,980057.5037073353,423227.94677740335,1190.2284997832246,0.9685739498875445
6000,-557797.6312444294,980686.7049061556,422889.0736617262,1190.9926316796705,0.9685739498875445
6100,-557301.5108257225,982093.5481176453,424792.03729192284,1192.7011690651887,0.9685739498875445
6200,-556463.8323906148,981983.916741712,425520.08435109723,1192.568027501951,0.9685739498875445
6300,-556126.3020534599,986179.0601076884,430052.7580542285,1197.6628093652332,0.9685739498875445
6400,-551434.1808419907,984652.8640439515,433218.68320196075,1195.8093241927354,0.9685739498875445
6500,-549770.3130343901,982525.3093112493,432754.9962768592,1193.2255204178225,0.9685739498875445
6600,-554127.5463141883,986724.1307181979,432596.5844040096,1198.324769069198,0.9685739498875445
6700,-554011.735053488,986128.7733639325,432117.03831044445,1197.601738749118,0.9685739498875445
6800,-554515.1792053664,985703.6601718371,431188.48096647067,1197.0854610460733,0.9685739498875445
6900,-552643.258537502,981379.324863099,428736.066325597,1191.8337823357842,0.9685739498875445
7000,-557097.571459868,986543.682223568,429446.1107637,1198.105623824925,0.9685739498875445
7100,-552536.054689155,980373.5272836057,427837.4725944507,1190.6122938623043,0.9685739498875445
7200,-551391.663185426,979857.5683456234,428465.9051601974,1189.9856887596636,0.9685739498875445
7300,-553566.7253685081,980901.8304801994,427335.1051116913,1191.253890420398,0.9685739498875445
7400,-553864.0853214199,980322.923700397,426458.83837897715,1190.5508384612708,0.9685739498875445
7500,-554704.9241813114,983076.3698564579,428371.44567514653,1193.894754583708,0.9685739498875445
7600,-554553.2897523129,985532.6471908458,430979.35743853287,1196.8777747388528,0.9685739498875445
7700,-555042.381610998,985834.3786280677,430791.9970170697,1197.244211763725,0.9685739498875445
7800,-552487.9815948689,982590.0608322765,430102.07923740754,1193.3041577482234,0.9685739498875445
7900,-557820.2912949407,990042.4786381258,432222.18734318507,1202.3547287925348,0.9685739498875445
8000,-554983.5344049567,988437.850556512,433454.3161515553,1200.4059920428394,0.9685739498875445
8100,-552929.054653273,987269.9757125988,434340.9210593258,1198.9876692218343,0.9685739498875445
8200,-551266.5659023905,985589.3649538587,434322.79905146814,1196.9466554909786,0.9685739498875445
8300,-550454.5474535013,985976.6311513358,435522.0836978345,1197.4169700016032,0.9685739498875445
8400,-554436.590151825,989183.7713864543,434747.18123462936,1201.3118738171445,0.9685739498875445
8500,-552057.6038745428,987896.0591867184,435838.4553121757,1199.7480148049472,0.9685739498875445
8600,-552343.6514885211,985570.0085006482,433226.35701212706,1196.9231480925062,0.9685739498875445
8700,-551574.9533583606,985751.0638897165,434176.11053135595,1197.1430303782834,0.9685739498875445
8800,-556070.9716738472,990011.0639140831,433940.0922402359,1202.3165772557861,0.9685739498875445
8900,-549937.242544421,986510.4130498223,436573.17050540133,1198.065220156154,0.9685739498875445
9000,-551755.8212742032,984367.9368551406,432612.11558093736,1195.4632950472997,0.9685739498875445
9100,-553949.24220761,987582.4788749712,433633.2366673611,1199.3671879426452,0.9685739498875445
9200,-551703.5708424384,985252.2534142657,433548.6825718273,1196.537251185097,0.9685739498875445
9300,-553614.7320902655,987341.0800287896,433726.3479385241,1199.0740216891822,0.9685739498875445
9400,-554384.9264978403,984663.3861850981,430278.45968725777,1195.8221027819754,0.9685739498875445
9500,-552596.7232644046,985295.7727585952,432699.0494941906,1196.5901031491062,0.9685739498875445
9600,-553173.0688544596,986468.0043318081,433294.9354773485,1198.0137169896266,0.9685739498875445
9700,-552012.9657600606,986831.5205725376,434818.55481247697,1198.455188421878,0.9685739498875445
9800,-555004.3060803497,988755.2382423934,433750.93216204364,1200.7914427615851,0.9685739498875445
9900,-550882.0824115658,982829.9986192782,431947.9162077124,1193.595549621847,0.9685739498875445
10000,-553597.8769516284,986263.2874657083,432665.41051407997,1197.7650990794566,0.9685739498875445
10100,-551887.6002639318,986482.6142872716,434595.01402333984,1198.0314600152221,0.9685739498875445
10200,-552969.9368247623,989142.6917589288,436172.75493416656,1201.2619847613937,0.9685739498875445
10300,-550809.1835207036,988830.6887917744,438021.50527107087,1200.8830735014733,0.9685739498875445
10400,-550740.4540144885,989242.0317218606,438501.57770737214,1201.3826279426373,0.9685739498875445
10500,-547153.3648595298,988299.406742279,441146.0418827492,1200.2378592825723,0.9685739498875445
10600,-551717.537262545,990083.9453438068,438366.4080812618,1202.4050879344288,0.9685739498875445
10700,-554059.4411036456,991875.1104903901,437815.6693867445,1204.5803641781365,0.9685739498875445
10800,-553617.7544539655,989758.961781873,436141.20732790756,1202.0104124221132,0.9685739498875445
10900,-549688.2543999786,987602.274312573,437914.01991259446,1199.3912284646658,0.9685739498875445
11000,-550846.8926297212,986238.3841221712,435391.49149245,1197.7348552732458,0.9685739498875445
11100,-550787.8562427806,988521.1984603277,437733.3422175471,1200.5072137060004,0.9685739498875445
11200,-548628.0869402075,984241.9433872262,435613.8564470187,1195.3102825804485,0.9685739498875445
11300,-552807.0263583744,987338.2788058892,434531.2524475148,1199.0706197507063,0.9685739498875445
11400,-551651.5022340501,986268.3506260815,434616.8483920314,1197.7712480225057,0.9685739498875445
11500,-556033.1742111528,990129.5226674255,434096.3484562726,1202.4604392064816,0.9685739498875445
11600,-554048.5395050133,987522.0534557677,433473.5139507544,1199.2938044362945,0.9685739498875445
11700,-551668.4181793416,986442.3631962761,434773.94501693454,1197.982577173686,0.9685739498875445
11800,-552460.273956784,987831.2562710824,435370.9823142984,1199.669315058486,0.9685739498875445
11900,-555788.5035802806,991873.5234863323,436085.0199060517,1204.5784368448406,0.9685739498875445
12000,-551009.4365003789,986724.283403045,435714.84690266615,1198.3249544969467,0.9685739498875445
12100,-553570.9693697477,990227.0122107677,436656.04284102004,1202.5788351500642,0.9685739498875445
12200,-556530.5086019123,991920.7309274197,435390.22232550744,1204.635767809168,0.9685739498875445
12300,-552622.1550860638,988814.2796756322,436192.12458956847,1200.8631454894794,0.9685739498875445
12400,-553295.6596793914,992924.9763411946,439629.31666180317,1205.8553712586902,0.9685739498875445
12500,-550422.161097833,990412.656149565,439990.49505173205,1202.804289989125,0.9685739498875445
12600,-547239.429081508,988254.7261538228,441015.2970723149,1200.183597048401,0.9685739498875445
12700,-552738.1841356838,994266.7778442069,441528.5937085231,1207.48491889635,0.9685739498875445
12800,-551806.3710910762,990486.638389377,438680.26729830087,1202.8941375439563,0.9685739498875445
12900,-551878.3971967483,989135.0732857591,437256.6760890108,1201.2527325248084,0.9685739498875445
13000,-551946.759947964,987820.7652698909,435874.0053219269,1199.6565742870905,0.9685739498875445
13100,-552922.8216408873,987202.5733615585,434279.7517206712,1198.9058125972413,0.9685739498875445
13200,-550550.7893810654,984527.2578910999,433976.4685100345,1195.6567820997393,0.9685739498875445
13300,-553519.6414137864,985404.6888035787,431885.0473897923,1196.7223759803765,0.9685739498875445
13400,-552186.1136314208,985478.5153996819,433292.4017682611,1196.8120345140762,0.9685739498875445
13500,-550824.5547651732,984496.926362653,433672.3715974798,1195.6199460473008,0.9685739498875445
13600,-546763.2276612865,983343.1846279125,436579.956966626,1194.2187871470494,0.9685739498875445
13700,-552081.6717537502,990293.8302567499,438212.1585029997,1202.659982166772,0.9685739498875445
13800,-549852.1457201177,988094.907873517,438242.7621533993,1199.9895061187497,0.9685739498875445
13900,-550499.8079090798,989608.089504119,439108.2815950392,1201.8271859439415,0.9685739498875445
14000,-548593.7070675576,985883.3788494782,437289.6717819206,1197.3037199658436,0.9685739498875445
14100,-553769.8786075944,989883.2766224868,436113.39801489236,1202.1613862840395,0.9685739498875445
14200,-553962.2303017797,988101.4829784662,434139.2526766865,1199.9974912392856,0.9685739498875445
14300,-553024.2153915102,989486.899863867,436462.6844723568,1201.6800074741468,0.9685739498875445
14400,-553657.9294127608,989825.8964219338,436167.967009173,1202.0917010362218,0.9685739498875445
14500,-550262.8110201145,987098.7506025918,436835.9395824773,1198.779725295036,0.9685739498875445
14600,-553255.4735434735,988302.8162439233,435047.34270044975,1200.2419999437188,0.9685739498875445
14700,-555071.0530723417,989991.0369298654,434919.98385752365,1202.2922555325297,0.9685739498875445
14800,-551537.5597829903,987699.4869126652,436161.92712967494,1199.5092880751783,0.9685739498875445
14900,-550744.6845583702,988519.2115192646,437774.52696089447,1200.5048006701613,0.9685739498875445
15000,-548415.563261264,986775.6890489629,438360.1257876989,1198.387383961126,0.9685739498875445
15100,-550339.3835388282,987626.9371112067,437287.55357237847,1199.421180141692,0.9685739498875445
15200,-550951.9154365202,987031.501198221,436079.58576170076,1198.6980544161615,0.9685739498875445
15300,-553551.5912652994,990002.082558719,436450.4912934196,1202.3056698701678,0.9685739498875445
15400,-548890.7944463426,986266.8103942778,437376.0159479352,1197.7693774916622,0.9685739498875445
15500,-551632.4066469753,986599.4764063591,434967.0697593838,1198.1733829372515,0.9685739498875445
15600,-552880.061175176,988149.4881224895,435269.4269473136,1200.0557909720428,0.9685739498875445
15700,-551740.6367641473,987909.9499097745,436169.31314562715,1199.7648843604595,0.9685739498875445
15800,-551490.5677869515,987403.0019812759,435912.4341943243,1199.1492226568116,0.9685739498875445
15900,-550587.3305640453,985992.2870979006,435404.9565338553,1197.435983328599,0.9685739498875445
16000,-551938.4077875102,988589.2879552429,436650.8801677327,1200.5899048308347,0.9685739498875445
16100,-553257.7847956503,989869.6715963765,436611.8868007262,1202.1448636925022,0.9685739498875445
16200,-553707.1163947815,986283.73841534,432576.62202055845,1197.7899356864996,0.9685739498875445
16300,-548641.1784415627,983216.9494289532,434575.77098739054,1194.0654811105069,0.9685739498875445
16400,-552330.4217471937,987504.5950788851,435174.1733316914,1199.2726021520948,0.9685739498875445
16500,-552665.3269156301,987230.1733941752,434564.8464785451,1198.9393313910787,0.9685739498875445
16600,-550799.0532236481,985823.5693422571,435024.516118609,1197.231084452332,0.9685739498875445
16700,-554915.595031173,989290.590541457,434374.995510284,1201.4416000853746,0.9685739498875445
16800,-552661.1000850359,989454.7678756923,436793.66779065644,1201.6409848576825,0.9685739498875445
16900,-552361.9752755845,991024.9667471269,438662.9914715424,1203.5479091351247,0.9685739498875445
17000,-550956.6694831336,988984.5665961958,438027.8971130622,1201.069950034344,0.9685739498875445
17100,-548776.3419066155,989728.9651447511,440952.6232381356,1201.973983077646,0.9685739498875445
17200,-552704.5961869108,992666.0607364913,439961.4645495806,1205.5409318195852,0.9685739498875445
17300,-552761.1371226469,994882.4506054393,442121.31348279235,1208.2326212140072,0.9685739498875445
17400,-548397.8597878749,993059.7864380463,444661.9266501714,1206.0190910595431,0.9685739498875445
17500,-550764.2551524192,997162.3411609442,446398.086008525,1211.0014288658883,0.9685739498875445
17600,-550260.020825454,993106.2661373387,442846.2453118847,1206.0755382195823,0.9685739498875445
17700,-548754.475590066,990443.1257658605,441688.6501757945,1202.8412937420223,0.9685739498875445
17800,-546778.6896720761,990197.8168778353,443419.12720575917,1202.5433789475603,0.9685739498875445
17900,-549567.2264303053,991059.5550999385,441492.32866963325,1203.5899148777685,0.9685739498875445
18000,-549102.4567350829,990472.4427652478,441369.9860301649,1202.876897702062,0.9685739498875445
18100,-551888.473284849,992949.9957036923,441061.52241884335,1205.8857559638514,0.9685739498875445
18200,-550418.0108553106,994447.7409313965,444029.7300760859,1207.7046890863307,0.9685739498875445
18300,-549487.7068255031,992329.5272572266,442841.8204317235,1205.1322295376917,0.9685739498875445
18400,-552023.7794366563,991268.1460653003,439244.36662864406,1203.843237678555,0.9685739498875445
18500,-552020.2255865568,990358.4410162366,438338.2154296797,1202.7384485496552,0.9685739498875445
18600,-551741.4216162981,988997.6504012055,437256.2287849074,1201.0858396301576,0.9685739498875445
18700,-550081.3707885081,988113.7711278019,438032.40033929376,1200.0124145529624,0.9685739498875445
18800,-552412.9294586265,989976.4327272829,437563.5032686563,1202.274519493507,0.9685739498875445
18900,-549703.8839161703,986819.8065623392,437115.92264616885,1198.4409623701085,0.9685739498875445
19000,-552337.1006060969,989670.0433589395,437332.94275284256,1201.9024256552846,0.9685739498875445
19100,-549246.9657815779,984816.391408772,435569.4256271941,1196.0079196112363,0.9685739498875445
19200,-554851.4992696131,988220.7562178015,433369.2569481884,1200.1423423405543,0.9685739498875445
19300,-551398.0264840843,984459.2037261598,433061.17724207544,1195.5741338813089,0.9685739498875445
19400,-553694.4024131754,985064.2335383701,431369.8311251947,1196.3089108948896,0.9685739498875445
19500,-551708.1849130476,982548.5955086423,430840.4105955947,1193.2538002847527,0.9685739498875445
19600,-550025.7945027584,982770.6933901324,432744.898887374,1193.5235265276426,0.9685739498875445
19700,-551166.6837206269,985629.1661484733,434462.4824278464,1196.9949919569274,0.9685739498875445
19800,-549193.6226604069,984077.9724368721,434884.3497764652,1195.1111484505532,0.9685739498875445
19900,-551734.1554818982,988900.1872237818,437166.0317418836,1200.9674757066018,0.9685739498875445
20000,-551300.4480608786,990052.8803388639,438752.4322779854,1202.3673611132078,0.9685739498875445
20100,-548904.9439613009,989305.0653660938,440400.1214047929,1201.4591790016593,0.9685739498875445
20200,-549160.571405747,995719.6609429441,446559.08953719714,1209.2493693132176,0.9685739498875445
